Time,x pos,y pos,phi,motor1 thrust,motor2 thrust,desired angle,desired thrust
0,0,0,0,9.81,9.81,0.0008503401360544217,20.54091836734694
0.0033333333333333335,8.779179249134138e-15,8.527021919879889e-08,8.047996976578987e-11,9.81779503968254,9.817553599773243,0.0008503401360544217,20.54091836734694
0.006666666666666667,5.257405495988083e-14,3.396597064752014e-07,3.2074726531069097e-10,9.825460415115653,9.824981053138316,0.0008503401360544217,20.54091836734694
0.01,1.8365600147681048e-13,8.456200265600346e-07,7.989548355305705e-10,9.832998285364772,9.832284464540747,0.0008503401360544217,20.54091836734694
0.013333333333333334,4.888085495219457e-13,1.6842285514386134e-06,1.5921191372054724e-09,9.84041077352862,9.839465903334254,0.0008503401360544217,20.54091836734694
0.016666666666666666,1.0977049215677926e-12,2.9352113635631445e-06,2.776137763021917e-09,9.847699967338349,9.846527404365924,0.0008503401360544217,20.54091836734694
0.02,2.191186293703767e-12,4.676965777344972e-06,4.425806787197691e-09,9.854867919746697,9.853470968551619,0.0008503401360544217,20.54091836734694
0.023333333333333334,4.009441306647411e-12,6.986582485288592e-06,6.614837833212779e-09,9.861916649507322,9.860298563441804,0.0008503401360544217,20.54091836734694
0.02666666666666667,6.86008737889206e-12,9.939867335023422e-06,9.415874868085557e-09,9.868848141744497,9.867012123777924,0.0008503401360544217,20.54091836734694
0.030000000000000002,1.1126154403456173e-11,1.361136274338504e-05,1.2900510727552826e-08,9.875664348513306,9.873613552039522,0.0008503401360544217,20.54091836734694
0.03333333333333333,1.7273971436384238e-11,1.807436875359512e-05,1.7139303376451306e-08,9.88236718935051,9.880104718982217,0.0008503401360544217,20.54091836734694
0.03666666666666667,2.5860957010118647e-11,2.3400963741488313e-05,2.2201791908525927e-08,9.888958551816247,9.886487464166718,0.0008503401360544217,20.54091836734694
0.04,3.754331372818786e-11,2.966202477663534e-05,2.8156512289824554e-08,9.895440292026684,9.892763596479012,0.0008503401360544217,20.54091836734694
0.043333333333333335,5.308362781940678e-11,3.692724764411403e-05,3.507101284976836e-08,9.901814235177826,9.89893489464189,0.0008503401360544217,20.54091836734694
0.04666666666666667,7.335837435002768e-11,4.5265166532584294e-05,4.301186952392892e-08,9.908082176060576,9.905003107717926,0.0008503401360544217,20.54091836734694
0.05,9.936532881107732e-11,5.474317339422834e-05,5.204470085247159e-08,9.914245879567227,9.910969955604081,0.0008503401360544217,20.54091836734694
0.05333333333333334,1.3223088581552983e-10,6.542753698202533e-05,6.223418273816547e-08,9.920307081189511,9.916837129518058,0.0008503401360544217,20.54091836734694
0.05666666666666667,1.73217285656055e-10,7.738342156973809e-05,7.364406296779791e-08,9.926267487508353,9.922606292476537,0.0008503401360544217,20.54091836734694
0.060000000000000005,2.2372974948890457e-10,9.067490535990001e-05,8.633717550076921e-08,9.932128776675471,9.928279079765455,0.0008503401360544217,20.54091836734694
0.06333333333333334,2.8532352392311e-10,0.00010536499858500225,1.0037545452858451e-07,9.937892598886945,9.933857099402413,0.0008503401360544217,20.54091836734694
0.06666666666666667,3.597108358066165e-10,0.0001215156613069944,1.1581994830889583e-07,9.943560576848903,9.939341932591415,0.0008503401360544217,20.54091836734694
0.06999999999999999,4.487677580123219e-10,0.00013918782092012683,1.3273083277769853e-07,9.94913430623545,9.944735134169976,0.0008503401360544217,20.54091836734694
0.07333333333333332,5.545409870372735e-10,0.00015844138936207903,1.5116742494321936e-07,9.95461535613897,9.950038233048815,0.0008503401360544217,20.54091836734694
0.07666666666666665,6.792545332375469e-10,0.0001793352800382357,1.7118819606497958e-07,9.96000526951291,9.955252732644192,0.0008503401360544217,20.54091836734694
0.07999999999999997,8.253163245296375e-10,0.00020192742446389182,1.9285078462146468e-07,9.96530556360722,9.960380111303046,0.0008503401360544217,20.54091836734694
0.0833333333333333,9.953247243965785e-10,0.00022627478862908724,2.1621200906977363e-07,9.970517730396507,9.965421822721035,0.0008503401360544217,20.54091836734694
0.08666666666666663,1.1920749650434997e-09,0.00025243338909069444,2.4132788040056976e-07,9.97564323700108,9.970379296353618,0.0008503401360544217,20.54091836734694
0.08999999999999996,1.4185654965530046e-09,0.00028045830879630453,2.6825361449159687e-07,9.980683526100965,9.975253937820272,0.0008503401360544217,20.54091836734694
0.09333333333333328,1.6780042528956033e-09,0.00031040371264438193,2.9704364426298123e-07,9.985640016343034,9.980047129301962,0.0008503401360544217,20.54091836734694
0.09666666666666661,1.9738148356545343e-09,0.0003423228627850831,3.277516316374794e-07,9.99051410274135,9.984760229932009,0.0008503401360544217,20.54091836734694
0.09999999999999994,2.3096426163276808e-09,0.0003762681336660618,3.6043047930878745e-07,9.99530715707084,9.98939457618041,0.0008503401360544217,20.54091836734694
0.10333333333333326,2.6893607580719557e-09,0.0004122910268275106,3.951323423209725e-07,10.000020528254405,9.993951482231774,0.0008503401360544217,20.54091836734694
0.10666666666666659,3.1170761577575564e-09,0.0004504421854506186,4.319086394620472e-07,10.004655542743595,9.998432240356927,0.0008503401360544217,20.54091836734694
0.10999999999999992,3.5971353092008648e-09,0.0004907714086635548,4.7081006447465104e-07,10.00921350489294,10.002838121278353,0.0008503401360544217,20.54091836734694
0.11333333333333324,4.134130088445576e-09,0.0005333276656090184,5.118865970867569e-07,10.01369569732803,10.007170374529524,0.0008503401360544217,20.54091836734694
0.11666666666666657,4.7329034619618455e-09,0.0005781591092773299,5.55187513865277e-07,10.018103381307476,10.011430228808234,0.0008503401360544217,20.54091836734694
0.1199999999999999,5.398555118632949e-09,0.0006253130901089707,6.007613988953977e-07,10.02243779707885,10.015618892324047,0.0008503401360544217,20.54091836734694
0.12333333333333323,6.136447026398108e-09,0.0006748361693704138,6.486561542884229e-07,10.026700164228671,10.019737553139958,0.0008503401360544217,20.54091836734694
0.12666666666666657,6.952208914418825e-09,0.0007267741323070238,6.989190105208649e-07,10.030891682026592,10.023787379508342,0.0008503401360544217,20.54091836734694
0.1299999999999999,7.851743681634316e-09,0.0007811720010767419,7.515965366074748e-07,10.035013529763818,10.027769520201314,0.0008503401360544217,20.54091836734694
0.13333333333333322,8.84123273256941e-09,0.0008380740474682098,8.0673465011087e-07,10.039066867085925,10.031685104835569,0.0008503401360544217,20.54091836734694
0.13666666666666655,9.927141241255653e-09,0.0008975238054069244,8.643786269903587e-07,10.043052834320099,10.035535244191818,0.0008503401360544217,20.54091836734694
0.13999999999999987,1.1116223344123387e-08,0.0009595640832529571,9.245731112925355e-07,10.046972552796948,10.039321030528884,0.0008503401360544217,20.54091836734694
0.1433333333333332,1.2415527262719145e-08,0.0010242369758937104,9.87362124686173e-07,10.050827125166949,10.043043537892567,0.0008503401360544217,20.54091836734694
0.14666666666666653,1.383240035709903e-08,0.0010915838766351294,1.0527890758438932e-06,10.05461763571161,10.046703822419362,0.0008503401360544217,20.54091836734694
0.14999999999999986,1.5374494110744652e-08,0.001161645488894726,1.12089676967307e-06,10.058345150649469,10.0503029226351,0.0008503401360544217,20.54091836734694
0.15333333333333318,1.704976904784386e-08,0.0012344618376997187,1.1917274163983646e-06,10.06201071843698,10.053841859748626,0.0008503401360544217,20.54091836734694
0.1566666666666665,1.8866499583773862e-08,0.0013100722809935383,1.2653226404982656e-06,10.06561537006439,10.057321637940571,0.0008503401360544217,20.54091836734694
0.15999999999999984,2.0833278809619344e-08,0.0013885155207538906,1.3417234894979666e-06,10.069160119346696,10.060743244647297,0.0008503401360544217,20.54091836734694
0.16333333333333316,2.2959023211553127e-08,0.0014698296139255182,1.420970442620873e-06,10.072645963209746,10.06410765084013,0.0008503401360544217,20.54091836734694
0.1666666666666665,2.525297732590135e-08,0.00155405198317075,1.5031034193009966e-06,10.076073881971572,10.06741581129992,0.0008503401360544217,20.54091836734694
0.16999999999999982,2.7724718330709623e-08,0.0016412194274408741,1.5881617875584597e-06,10.07944483961905,10.070668664887032,0.0008503401360544217,20.54091836734694
0.17333333333333314,3.0384160574620674e-08,0.0017313681323713232,1.6761843722402937e-06,10.082759784079938,10.073867134806825,0.0008503401360544217,20.54091836734694
0.17666666666666647,3.324156004386801e-08,0.0018245336805036033,1.7672094631286865e-06,10.086019647490387,10.077012128870711,0.0008503401360544217,20.54091836734694
0.1799999999999998,3.630751876818382e-08,0.0019207510613368608,1.8612748229187894e-06,10.089225346457996,10.080104539752865,0.0008503401360544217,20.54091836734694
0.18333333333333313,3.9592989166413025e-08,0.0020200546812119205,1.9584176950681752e-06,10.092377782320488,10.083145245242639,0.0008503401360544217,20.54091836734694
0.18666666666666645,4.3109278332618676e-08,0.0021224783730305922,2.0586748115199902e-06,10.095477841400072,10.086135108492785,0.0008503401360544217,20.54091836734694
0.18999999999999978,4.686805226345742e-08,0.0022280554058129853,2.162082400301821e-06,10.098526395253568,10.089074978263522,0.0008503401360544217,20.54091836734694
0.1933333333333331,5.0881340027596644e-08,0.0023368184940955393,2.26867619300226e-06,10.101524300918372,10.091965689162548,0.0008503401360544217,20.54091836734694
0.19666666666666643,5.5161537877938184e-08,0.0024487998071724168,2.378491432127125e-06,10.104472401154316,10.094808061881038,0.0008503401360544217,20.54091836734694
0.19999999999999976,5.972141330740624e-08,0.0025640309781828747,2.4915628783372527e-06,10.1073715246815,10.097602903425711,0.0008503401360544217,20.54091836734694
0.2033333333333331,6.457410904905007e-08,0.0026825431130471796,2.6079248175697603e-06,10.110222486414173,10.100351007347035,0.0008503401360544217,20.54091836734694
0.20666666666666642,6.973314702120465e-08,0.002804366799253591,2.7276110680446317e-06,10.113026087690697,10.103053153963605,0.0008503401360544217,20.54091836734694
0.20999999999999974,7.521243221844531e-08,0.002929532114498893,2.8506549871584675e-06,10.115783116499703,10.105710110582809,0.0008503401360544217,20.54091836734694
0.21333333333333307,8.102625654906476e-08,0.0030580686351849204,2.9770894782671974e-06,10.118494347702466,10.108322631717785,0.0008503401360544217,20.54091836734694
0.2166666666666664,8.718930261979337e-08,0.0031900054447734742,3.1069469973595252e-06,10.121160543251579,10.110891459300785,0.0008503401360544217,20.54091836734694
0.21999999999999972,9.37166474684764e-08,0.0033253711420019876,3.24025955962286e-06,10.12378245240598,10.113417322892959,0.0008503401360544217,20.54091836734694
0.22333333333333305,1.0062376624541367e-07,0.0034641938489622655,3.3770587459034453e-06,10.126360811942412,10.11590093989066,0.0008503401360544217,20.54091836734694
0.22666666666666638,1.0792653584406009e-07,0.003606501219044579,3.51737570906238e-06,10.12889634636334,10.118343015728293,0.0008503401360544217,20.54091836734694
0.2299999999999997,1.1564123848177732e-07,0.0037523204447493562,3.6612411802291903e-06,10.131389768101425,10.120744244077798,0.0008503401360544217,20.54091836734694
0.23333333333333303,1.2378456523131946e-07,0.00390167826536868,3.8086854749545944e-06,10.133841777720566,10.123105307044785,0.0008503401360544217,20.54091836734694
0.23666666666666636,1.3237361950372767e-07,0.004054600974539761,3.959738499264068e-06,10.136253064113626,10.125426875361416,0.0008503401360544217,20.54091836734694
0.23999999999999969,1.414259204833011e-07,0.004211114427672516,4.114429755613798e-06,10.138624304696837,10.127709608576069,0.0008503401360544217,20.54091836734694
0.243333333333333,1.5095940651530338e-07,0.004371244049253358,4.2727883487505776e-06,10.140956165600977,10.129954155239828,0.0008503401360544217,20.54091836734694
0.24666666666666634,1.6099243844705657e-07,0.004535014840027256,4.434842991477187e-06,10.143249301859365,10.132161153089875,0.0008503401360544217,20.54091836734694
0.24999999999999967,1.7154380292306626e-07,0.004702451384060086,4.600622010324766e-06,10.14550435759272,10.134331229229813,0.0008503401360544217,20.54091836734694
0.253333333333333,1.8263271563481429e-07,0.004873577855683289,4.77015335113366e-06,10.147721966190943,10.136465000306996,0.0008503401360544217,20.54091836734694
0.2566666666666664,1.942788245258468e-07,0.0050484180263227745,4.943464584544215e-06,10.149902750491869,10.138563072686885,0.0008503401360544217,20.54091836734694
0.25999999999999973,2.06502212952779e-07,0.005226995271214013,5.120582911398945e-06,10.15204732295704,10.140626042624517,0.0008503401360544217,20.54091836734694
0.2633333333333331,2.1932340280282872e-07,0.00540933257600521,5.3015351680575e-06,10.154156285844559,10.142654496433085,0.0008503401360544217,20.54091836734694
0.26666666666666644,2.327633575684842e-07,0.005595452543250425,5.486347831625823e-06,10.156230231379052,10.144649010649745,0.0008503401360544217,20.54091836734694
0.2699999999999998,2.468434853799037e-07,0.005785377398794475,5.675047025100874e-06,10.158269741918806,10.146610152198626,0.0008503401360544217,20.54091836734694
0.27333333333333315,2.6158564199563606e-07,0.005979128998051424,5.867658522432255e-06,10.160275390120125,10.148538478551131,0.0008503401360544217,20.54091836734694
0.2766666666666665,2.770121337522448e-07,0.006176728832178423,6.064207753502091e-06,10.16224773909894,10.150434537883578,0.0008503401360544217,20.54091836734694
0.27999999999999986,2.931457204734099e-07,0.006378198034146662,6.26471980902444e-06,10.164187342589733,10.15229886923219,0.0008503401360544217,20.54091836734694
0.2833333333333332,3.100096183390741e-07,0.006583557384711135,6.469219445365556e-06,10.16609474510182,10.15413200264552,0.0008503401360544217,20.54091836734694
0.28666666666666657,3.276275027151935e-07,0.006792827318280909,6.677731089286235e-06,10.167970482073011,10.15593445933432,0.0008503401360544217,20.54091836734694
0.2899999999999999,3.460235109446432e-07,0.007006027928691556,6.8902788426075175e-06,10.169815080020733,10.157706751818925,0.0008503401360544217,20.54091836734694
0.2933333333333333,3.652222450998237e-07,0.007223178974881376,7.106886486800951e-06,10.171629056690616,10.159449384074163,0.0008503401360544217,20.54091836734694
0.29666666666666663,3.852487746975039e-07,0.007444299886473023,7.327577487504638e-06,10.17341292120262,10.16116285167186,0.0008503401360544217,20.54091836734694
0.3,4.061286393764306e-07,0.00766940976926209,7.5523749989662436e-06,10.175167174194721,10.162847641920965,0.0008503401360544217,20.54091836734694
0.30333333333333334,4.278878515382272e-07,0.007898527410614233,7.781301868414135e-06,10.176892307964199,10.16450423400534,0.0008503401360544217,20.54091836734694
0.3066666666666667,4.505528989520959e-07,0.008131671284772334,8.014380640357804e-06,10.17858880660658,10.166133099119248,0.0008503401360544217,20.54091836734694
0.31000000000000005,4.7415074732383134e-07,0.008368859558075214,8.251633560818696e-06,10.18025714615226,10.167734700600587,0.0008503401360544217,20.54091836734694
0.3133333333333334,4.987088428296472e-07,0.008610110094089364,8.493082581492575e-06,10.18189779470085,10.169309494061896,0.0008503401360544217,20.54091836734694
0.31666666666666676,5.242551146153074e-07,0.008855440458655155,8.73874936384449e-06,10.183511212553299,10.170857927519183,0.0008503401360544217,20.54091836734694
0.3200000000000001,5.50817977261051e-07,0.009104867924848934,8.988655283137467e-06,10.185097852341785,10.172380441518603,0.0008503401360544217,20.54091836734694
0.3233333333333335,5.784263332127874e-07,0.00935840947786243,9.242821432395932e-06,10.18665815915748,10.173877469261017,0.0008503401360544217,20.54091836734694
0.3266666666666668,6.071095751800376e-07,0.009616081819800823,9.501268626304953e-06,10.188192570676152,10.175349436724483,0.0008503401360544217,20.54091836734694
0.3300000000000002,6.368975885010835e-07,0.009877901374400857,9.764017405046309e-06,10.189701517281707,10.1767967627847,0.0008503401360544217,20.54091836734694
0.33333333333333354,6.678207534757889e-07,0.010143884291670315,1.0031088038072398e-05,10.191185422187639,10.178219859333442,0.0008503401360544217,20.54091836734694
0.3366666666666669,6.999099476665394e-07,0.010414046452450164,1.0302500527818976e-05,10.192644701556489,10.17961913139502,0.0008503401360544217,20.54091836734694
0.34000000000000025,7.331965481677513e-07,0.010688403472900669,1.0578274613357718e-05,10.194079764617296,10.180994977240802,0.0008503401360544217,20.54091836734694
0.3433333333333336,7.67712433844385e-07,0.010966970708912739,1.0858429773989551e-05,10.19549101378109,10.18234778850182,0.0008503401360544217,20.54091836734694
0.34666666666666696,8.034899875398975e-07,0.011249763260445746,1.114298523277971e-05,10.196878844754476,10.1836779502795,0.0008503401360544217,20.54091836734694
0.3500000000000003,8.405620982540594e-07,0.011536795975793053,1.1431959960035453e-05,10.198243646651306,10.184985841254552,0.0008503401360544217,20.54091836734694
0.35333333333333367,8.789621632910552e-07,0.011828083455776444,1.1725372676727356e-05,10.199585802102511,10.18627183379403,0.0008503401360544217,20.54091836734694
0.356666666666667,9.187240903782819e-07,0.01212364005787065,1.202324185785508e-05,10.200905687364088,10.187536294056628,0.0008503401360544217,20.54091836734694
0.3600000000000004,9.59882299756251e-07,0.01242347990025914,1.2325585735758505e-05,10.202203672423295,10.18877958209619,0.0008503401360544217,20.54091836734694
0.36333333333333373,1.0024717262399963e-06,0.012727616865822291,1.2632422303375112e-05,10.203480121103079,10.190002051963532,0.0008503401360544217,20.54091836734694
0.3666666666666671,1.0465278212523803e-06,0.013036064606059125,1.2943769317444464e-05,10.204735391164757,10.191204051806524,0.0008503401360544217,20.54091836734694
0.37000000000000044,1.0920865548296917e-06,0.013348836544943649,1.325964430166063e-05,10.205969834408993,10.192385923968548,0.0008503401360544217,20.54091836734694
0.3733333333333338,1.1391844175999106e-06,0.013665945882716947,1.3580064549773406e-05,10.207183796775098,10.193548005085265,0.0008503401360544217,20.54091836734694
0.37666666666666715,1.1878584227340246e-06,0.013987405599616056,1.3905047128639131e-05,10.208377618438657,10.194690626179815,0.0008503401360544217,20.54091836734694
0.3800000000000005,1.238146107870762e-06,0.014313228459540701,1.4234608881221907e-05,10.20955163390755,10.195814112756397,0.0008503401360544217,20.54091836734694
0.38333333333333386,1.29008553701511e-06,0.014643427013658918,1.4568766429546036e-05,10.21070617211636,10.1969187848923,0.0008503401360544217,20.54091836734694
0.3866666666666672,1.343715302410976e-06,0.014978013603952579,1.4907536177600435e-05,10.211841556519222,10.19800495732841,0.0008503401360544217,20.54091836734694
0.39000000000000057,1.399074526388345e-06,0.015317000366703826,1.5250934314195813e-05,10.212958105181109,10.199072939558176,0.0008503401360544217,20.54091836734694
0.3933333333333339,1.4562028631852851e-06,0.0156603992359234,1.5598976815775346e-05,10.214056130867608,10.200123035915135,0.0008503401360544217,20.54091836734694
0.3966666666666673,1.5151405007451392e-06,0.016008221946721836,1.595167944917963e-05,10.2151359411332,10.201155545658944,0.0008503401360544217,20.54091836734694
0.40000000000000063,1.5759281624892427e-06,0.01636048003862445,1.6309057774366613e-05,10.21619783840807,10.20217076305999,0.0008503401360544217,20.54091836734694
0.403333333333334,1.6386071090654993e-06,0.016717184858831113,1.6671127147087218e-05,10.217242120083457,10.203168977482584,0.0008503401360544217,20.54091836734694
