Time,x pos,y pos,phi,motor1 thrust,motor2 thrust,desired angle,desired thrust
0,0,0,0,9.81,9.81,0.00021258503401360543,20.86
0.0033333333333333335,3.2227519227106545e-11,1.1481481481006029e-07,2.953542035680694e-07,9.824763646386854,9.815903020279812,0.00021258503401360543,20.86
0.006666666666666667,1.6671983482177909e-10,4.573456789549408e-07,9.362531788300526e-07,9.835677616019852,9.825311272869035,0.00021258503401360543,20.86
0.01,5.111148449845364e-10,1.1386121396061496e-06,1.9197468621041363e-06,9.845625124323885,9.835347283083522,0.00021258503401360543,20.86
0.013333333333333334,1.2091801982376655e-09,2.267783417930088e-06,3.231403503596653e-06,9.85523387801525,9.845388989268697,0.00021258503401360543,20.86
0.016666666666666666,2.439067749292644e-09,3.952209247718091e-06,4.8543741692265985e-06,9.864642620110002,9.85530319938588,0.00021258503401360543,20.86
0.02,4.411511446918761e-09,6.2974502000158124e-06,6.771389996784431e-06,9.87388403868106,9.865062683823224,0.00021258503401360543,20.86
0.023333333333333334,7.368019671363492e-09,9.407307502323904e-06,8.965225402458721e-06,9.882967765569687,9.874663178226193,0.00021258503401360543,20.86
0.02666666666666667,1.1579076554194042e-08,1.3383852360798583e-05,1.1418826636508329e-05,9.89189836812527,9.88410539327401,0.00021258503401360543,20.86
0.030000000000000002,1.7342358671623868e-08,1.832745479374014e-05,1.4115365717092665e-05,9.900679250386,9.893391114989958,0.00021258503401360543,20.86
0.03333333333333333,2.4980971514599125e-08,2.433681198451859e-05,1.703827616037342e-05,9.909313500083625,9.902522359202733,0.00021258503401360543,20.86
0.03666666666666667,3.484170949090147e-08,3.1508976161949834e-05,2.0171282793247455e-05,9.917804073659692,9.911501187971894,0.00021258503401360543,20.86
0.04,4.729334286202716e-08,3.993938201600155e-05,2.3498428370963668e-05,9.926153837808162,9.920329669462896,0.00021258503401360543,20.86
0.043333333333333335,6.272493473436294e-08,4.972187365657626e-05,2.700409765022922e-05,9.93436557993151,9.92900986888503,0.00021258503401360543,20.86
0.04666666666666667,8.154419096138219e-08,6.094873112299006e-05,3.067303912055692e-05,9.942442011867398,9.937543846135533,0.00021258503401360543,20.86
0.05,1.0417584556088469e-07,7.371069645163727e-05,3.449038450048961e-05,9.950385772162182,9.945933654874032,0.00021258503401360543,20.86
0.05333333333333334,1.310600840066705e-07,8.809699930920706e-05,3.844166608524731e-05,9.958199428031847,9.954181341887097,0.00021258503401360543,20.86
0.05666666666666667,1.6265100651721757e-07,0.00010419538219869418,4.2512832028527234e-05,9.965885477254647,9.96228894649898,0.00021258503401360543,20.86
0.060000000000000005,1.9941513323502517e-07,0.00012209212524532547,4.669025964070439e-05,9.973446350045657,9.97025849997874,0.00021258503401360543,20.86
0.06333333333333334,2.41829952969441e-07,0.0001418720705694045,5.09607667857359e-05,9.980884410921476,9.978092024935846,0.00021258503401360543,20.86
0.06666666666666667,2.903825169631481e-07,0.00016361864625295981,5.531162145907172e-05,9.988201960554413,9.985791534705283,0.00021258503401360543,20.86
0.06999999999999999,3.4556807893815337e-07,0.00018741388990696712,5.9730549628697995e-05,9.995401237613708,9.993359032724994,0.00021258503401360543,20.86
0.07333333333333332,4.078887824811737e-07,0.00021333847184580324,6.420574142107114e-05,10.002484420591065,10.000796511908659,0.00021258503401360543,20.86
0.07666666666666665,4.778523966408101e-07,0.0002414717178754773,6.872585573314746e-05,10.009453629607911,10.008105954016816,0.00021258503401360543,20.86
0.07999999999999997,5.55971100429856e-07,0.0002718916317020764,7.328002335098567e-05,10.016310928201918,10.015289329029061,0.00021258503401360543,20.86
0.0833333333333333,6.427603167555038e-07,0.00030467491696675546,7.785784865450954e-05,10.023058325090515,10.022348594519945,0.00021258503401360543,20.86
0.08666666666666663,7.387375961380659e-07,0.0003398969989134942,8.244940998697702e-05,10.029697775909296,10.029285695040988,0.00021258503401360543,20.86
0.08999999999999996,8.444215504250723e-07,0.00037763204569574204,8.704525876652205e-05,10.036231184923386,10.03610256151106,0.00021258503401360543,20.86
0.09333333333333328,9.603308365621643e-07,0.000417952989327968,9.163641741582645e-05,10.042660406709992,10.04280111061721,0.00021258503401360543,20.86
0.09666666666666661,1.0869831903450007e-06,0.000460931546288033,9.621437618455335e-05,10.048987247810544,10.049383244227869,0.00021258503401360543,20.86
0.09999999999999994,1.2248945099473161e-06,0.0005066382377762039,0.0001007710889376399,10.055213468350946,10.055850848820157,0.00021258503401360543,20.86
0.10333333333333326,1.374577988899196e-06,0.0005551424096365299,0.00010529896798091769,10.06134078362866,10.062205794922923,0.00021258503401360543,20.86
0.10666666666666659,1.536543298076425e-06,0.0006065122519462083,0.00010979087799381187,10.06737086566544,10.068449936576949,0.00021258503401360543,20.86
0.10999999999999992,1.7112958161562866e-06,0.0006608148182784713,0.00011424012913707453,10.073305344724702,10.074585110813647,0.00021258503401360543,20.86
0.11333333333333324,1.899335907897245e-06,0.0007181160446444347,0.00011864046940164582,10.079145810792651,10.080613137153392,0.00021258503401360543,20.86
0.11666666666666657,2.1011582495093992e-06,0.0007784807681192577,0.00012298607626281172,10.08489381502239,10.086535817124552,0.00021258503401360543,20.86
0.1199999999999999,2.3172512002992273e-06,0.0008419727451578732,0.0001272715477018536,10.090550871140387,10.092354933804106,0.00021258503401360543,20.86
0.12333333333333323,2.5480962196957894e-06,0.0009086546696054635,0.00013149189265536658,10.096118456814775,10.098072251380643,0.00021258503401360543,20.86
0.12666666666666657,2.7941673286959887e-06,0.000978588190407765,0.00013564252095036949,10.101598014985095,10.103689514740397,0.00021258503401360543,20.86
0.1299999999999999,3.055930614703531e-06,0.0010518339290262063,0.0001397192327812474,10.106990955153158,10.109208449076908,0.00021258503401360543,20.86
0.13333333333333322,3.3338437786796185e-06,0.001128451496562796,0.00014371820778246407,10.112298654634863,10.114630759524701,0.00021258503401360543,20.86
0.13666666666666655,3.628355723472991e-06,0.0012084995105995984,0.00014763599374886292,10.117522459772852,10.119958130817386,0.00021258503401360543,20.86
0.13999999999999987,3.939906182152415e-06,0.001292035611757551,0.0001514694950532481,10.122663687109995,10.125192226970405,0.00021258503401360543,20.86
0.1433333333333332,4.268925385125936e-06,0.001379116479979303,0.00015521596080880743,10.127723624523808,10.130334690988583,0.00021258503401360543,20.86
0.14666666666666653,4.615833764797892e-06,0.001469797850540671,0.00015887297282181242,10.132703532321942,10.135387144598573,0.00021258503401360543,20.86
0.14999999999999986,4.981041696486629e-06,0.001564134529795237,0.00016243843337791102,10.13760464429899,10.140351188006182,0.00021258503401360543,20.86
0.15333333333333318,5.364949274302796e-06,0.001662180410656532,0.00016591055290322441,10.14242816875493,10.145228399678487,0.00021258503401360543,20.86
0.1566666666666665,5.767946120669874e-06,0.0017639884878221821,0.00016928783753937006,10.14717528947558,10.150020336150613,0.00021258503401360543,20.86
0.15999999999999984,6.190411228154848e-06,0.0018696108727443135,0.00017256907666946767,10.151847166675491,10.154728531856932,0.00021258503401360543,20.86
0.16333333333333316,6.632712832267613e-06,0.0019790988083504477,0.00017575333043014511,10.156444937903805,10.15935449898641,0.00021258503401360543,20.86
0.1666666666666665,7.095208313882385e-06,0.0020925026835190426,0.00017883991724255066,10.16096971891361,10.163899727361766,0.00021258503401360543,20.86
0.16999999999999982,7.5782441299330365e-06,0.002209872047313771,0.00018182840139340035,10.165422604495388,10.168365684342064,0.00021258503401360543,20.86
0.17333333333333314,8.082155771036508e-06,0.0023312556229805534,0.00018471858069514903,10.169804669275232,10.172753814748262,0.00021258503401360543,20.86
0.17666666666666647,8.607267744704165e-06,0.0024567013217113034,0.00018751047425247025,10.174116968478472,10.177065540811297,0.00021258503401360543,20.86
0.1799999999999998,9.153893582809859e-06,0.0025862562561782695,0.00019020431036037076,10.178360538659492,10.181302262142113,0.00021258503401360543,20.86
0.18333333333333313,9.7223358719954e-06,0.0027199667538427997,0.00019280051455744838,10.182536398398446,10.185465355723132,0.00021258503401360543,20.86
0.18666666666666645,1.0312886305708867e-05,0.0028578783700422853,0.00019529969785603093,10.186645548965682,10.189556175920535,0.00021258503401360543,20.86
0.18999999999999978,1.0925825756588465e-05,0.0030000359008589836,0.00019770264516921144,10.190688974954693,10.193576054516754,0.00021258503401360543,20.86
0.1933333333333331,1.1561424367924429e-05,0.0031464833957743545,0.00020001030395312155,10.194667644884404,10.197526300762517,0.00021258503401360543,20.86
0.19666666666666643,1.221994166295334e-05,0.003297264170112482,0.0002022237730811618,10.198582511771688,10.201408201447784,0.00021258503401360543,20.86
0.19999999999999976,1.2901626670763197e-05,0.0034524208172761026,0.00020434429196533734,10.202434513674936,10.205223020990877,0.00021258503401360543,20.86
0.2033333333333331,1.3606718067613377e-05,0.00361199522077869,0.00020637322993832986,10.206224574209612,10.208972001545103,0.00021258503401360543,20.86
0.20666666666666642,1.4335444332501064e-05,0.0037760285660760006,0.00020831207590847175,10.209953603036642,10.21265636312216,0.00021258503401360543,20.86
0.20999999999999974,1.5088023915834672e-05,0.003944561352200421,0.0002101624282983803,10.213622496324577,10.216277303731577,0.00021258503401360543,20.86
0.21333333333333307,1.586466542010506e-05,0.004117633403201401,0.00021192598527665357,10.217232137186413,10.219835999535471,0.00021258503401360543,20.86
0.2166666666666664,1.6665567791476796e-05,0.004295283879395209,0.00021360453529072995,10.220783396091973,10.22333360501788,0.00021258503401360543,20.86
0.21999999999999972,1.749092052125419e-05,0.004477551288427185,0.0002151999479077693,10.224277131256787,10.226771253167898,0.00021258503401360543,20.86
0.22333333333333305,1.834090385621012e-05,0.004664473496149618,0.00021671416496922362,10.227714189008362,10.230150055675912,0.00021258503401360543,20.86
0.22666666666666638,1.9215689016799858e-05,0.004856087737318317,0.00021814919206363044,10.231095404130722,10.233471103142147,0.00021258503401360543,20.86
0.2299999999999997,2.0115438422316622e-05,0.005052430626110907,0.00021950709032108145,10.234421600188156,10.23673546529683,0.00021258503401360543,20.86
0.23333333333333303,2.1040305922080896e-05,0.00525353816646981,0.00022078996853179428,10.237693589829044,10.23994419123119,0.00021258503401360543,20.86
0.23666666666666636,2.1990437031790966e-05,0.005459445762272836,0.000221999975590242,10.240912175070639,10.243098309638592,0.00021258503401360543,20.86
0.23999999999999969,2.2965969174197894e-05,0.005670188227334272,0.00022313929326537606,10.244078147565666,10.246198829065076,0.00021258503401360543,20.86
0.243333333333333,2.3967031923304074e-05,0.005885799795239265,0.00022421012929661147,10.247192288851634,10.249246738168594,0.00021258503401360543,20.86
0.24666666666666634,2.4993747251320357e-05,0.00610631412901431,0.00022521471081442683,10.250255370583645,10.252243005986246,0.00021258503401360543,20.86
0.24999999999999967,2.6046229777652625e-05,0.006331764330636553,0.00022615527808366782,10.25326815475158,10.255188582208811,0.00021258503401360543,20.86
0.253333333333333,2.712458701922438e-05,0.006562182950384599,0.0002270340785669262,10.256231393882453,10.258084397461932,0.00021258503401360543,20.86
0.2566666666666664,2.822891964147733e-05,0.006797601996033478,0.00022785336130469927,10.25914583122871,10.260931363593269,0.00021258503401360543,20.86
0.25999999999999973,2.935932170942709e-05,0.007038052941896354,0.00022861537160841566,10.262012200943289,10.26373037396499,0.00021258503401360543,20.86
0.2633333333333331,3.0515880938185855e-05,0.007283566737715536,0.0002293223460618392,10.264831228242176,10.266482303750962,0.00021258503401360543,20.86
0.26666666666666644,3.169867894239814e-05,0.007534173817405308,0.00022997650782583375,10.267603629555191,10.26918801023806,0.00021258503401360543,20.86
0.2699999999999998,3.2907791484069455e-05,0.007789904107649036,0.00023058006224098692,10.270330112665729,10.27184833313097,0.00021258503401360543,20.86
0.27333333333333315,3.414328871830087e-05,0.008050787036352992,0.00023113519272214815,10.273011376840165,10.274464094859923,0.00021258503401360543,20.86
0.2766666666666665,3.540523543647502e-05,0.008316851540959284,0.00023164405693853462,10.275648112947588,10.27703610089083,0.00021258503401360543,20.86
0.27999999999999986,3.669369130647086e-05,0.008588126076620229,0.00023210878327269634,10.278241003570516,10.279565140037258,0.00021258503401360543,20.86
0.2833333333333332,3.800871110951559e-05,0.008864638624236481,0.00023253146755130826,10.280790723107241,10.282051984773735,0.00021258503401360543,20.86
0.28666666666666657,3.935034497331254e-05,0.009146416698361205,0.00023291417004046971,10.28329793786639,10.284497391549904,0.00021258503401360543,20.86
0.2899999999999999,4.071863860111326e-05,0.0094334873549725,0.00023325891269794082,10.28576330615432,10.286902101105031,0.00021258503401360543,20.86
0.2933333333333333,4.211363349643082e-05,0.009725877199116289,0.00023356767667452718,10.28818747835591,10.289266838782453,0.00021258503401360543,20.86
0.29666666666666663,4.353536718311905e-05,0.010023612392421815,0.00023384240005663967,10.290571097009252,10.291592314843468,0.00021258503401360543,20.86
0.3,4.4983873420569566e-05,0.0103267186604919,0.0002340849758419023,10.29291479687484,10.293879224780335,0.00021258503401360543,20.86
0.30333333333333334,4.645918241380423e-05,0.010635221300170009,0.00023429725013955703,10.295219204999675,10.296128249627913,0.00021258503401360543,20.86
0.3066666666666667,4.796132101826608e-05,0.010949145186686216,0.0002344810205873189,10.297484940776837,10.298340056273622,0.00021258503401360543,20.86
0.31000000000000005,4.949031293913569e-05,0.011268514780684052,0.00023463803497626568,10.299712616000916,10.300515297765369,0.00021258503401360543,20.86
0.3133333333333334,5.1046178925023424e-05,0.01159335413513026,0.0002347699900753032,10.301902834919783,10.302654613617062,0.00021258503401360543,20.86
0.31666666666666676,5.262893695591014e-05,0.011923686902109366,0.0002348785306467285,10.304056194283099,10.304758630111465,0.00021258503401360543,20.86
0.3200000000000001,5.4238602425230385e-05,0.012259536339505026,0.00023496524864441673,10.306173283387936,10.30682796060005,0.00021258503401360543,20.86
0.3233333333333335,5.5875188316012486e-05,0.012600925317570007,0.00023503168258618185,10.308254684121913,10.308863205799605,0.00021258503401360543,20.86
0.3266666666666668,5.753870537100937e-05,0.012947876325386673,0.00023507931709190773,10.310300971004157,10.310864954085334,0.00021258503401360543,20.86
0.3300000000000002,5.9229162256772524e-05,0.013300411477219791,0.00023510958257910955,10.312312711224472,10.312833781780194,0.00021258503401360543,20.86
0.33333333333333354,6.094656572163903e-05,0.01365855251876347,0.00023512385510766713,10.314290464680964,10.31477025344029,0.00021258503401360543,20.86
0.3366666666666669,6.269092074761827e-05,0.01402232083328397,0.00023512345636557015,10.316234784016464,10.316674922136102,0.00021258503401360543,20.86
0.34000000000000025,6.446223069618056e-05,0.014391737447660138,0.00023510965378762788,10.318146214653998,10.318548329729357,0.00021258503401360543,20.86
0.3433333333333336,6.626049744796507e-05,0.014766823038323183,0.00023508366079922385,10.320025294831556,10.320391007145409,0.00021258503401360543,20.86
0.34666666666666696,6.808572153643774e-05,0.015147597937097431,0.00023504663717733516,10.321872555636403,10.322203474640943,0.00021258503401360543,20.86
0.3500000000000003,6.993790227554377e-05,0.015534082136943754,0.00023499968952118814,10.323688521039154,10.323986242066903,0.00021258503401360543,20.86
0.35333333333333367,7.181703788141061e-05,0.015926295297607272,0.00023494387182508485,10.3254737079278,10.325739809126489,0.00021258503401360543,20.86
0.356666666666667,7.372312558816942e-05,0.016324256751170923,0.00023488018614610585,10.32722862614189,10.327464665628161,0.00021258503401360543,20.86
0.3600000000000004,7.565616175797303e-05,0.016727985507516474,0.0002348095833595764,10.328953778507017,10.32916129173353,0.00021258503401360543,20.86
0.36333333333333373,7.761614198529843e-05,0.01713750025969453,0.000234732963995371,10.330649660869796,10.330830158200074,0.00021258503401360543,20.86
0.3666666666666671,7.96030611956307e-05,0.01755281938920502,0.00023465117914832598,10.332316762133424,10.332471726618612,0.00021258503401360543,20.86
0.37000000000000044,8.161691373863343e-05,0.0179739609711897,0.0002345650314562311,10.333955564294003,10.334086449645499,0.00021258503401360543,20.86
0.3733333333333338,8.365769347591814e-05,0.01840094277953809,0.0002344752761390769,10.335566542477698,10.335674771229478,0.00021258503401360543,20.86
0.37666666666666715,8.572539386353209e-05,0.018833782291908352,0.00023438262209344454,10.337150164978855,10.3372371268332,0.00021258503401360543,20.86
0.3800000000000005,8.782000802928975e-05,0.01927249669466443,0.00023428773303613783,10.338706893299145,10.338773943649375,0.00021258503401360543,20.86
0.38333333333333386,8.994152884507868e-05,0.019717102887730965,0.00023419122869137397,10.340237182187831,10.340285640811546,0.00021258503401360543,20.86
0.3866666666666672,9.208994899427529e-05,0.020167617489367257,0.0002340936860160672,10.341741479683217,10.341772629599504,0.00021258503401360543,20.86
0.39000000000000057,9.426526103441023e-05,0.02062405684086167,0.00023399564045795853,10.343220227155308,10.343235313639365,0.00021258503401360543,20.86
0.3933333333333339,9.646745745522639e-05,0.02108643701114781,0.00023389758724156533,10.34467385934978,10.344674089098316,0.00021258503401360543,20.86
0.3966666666666673,9.869653073227581e-05,0.021554773801343755,0.00023379998267714376,10.34610280443322,10.346089344874072,0.00021258503401360543,20.86
0.40000000000000063,0.00010095247337620404,0.02202908274921563,0.0002337032454880773,10.347507484039745,10.347481462779092,0.00021258503401360543,20.86
0.403333333333334,0.00010323527797787253,0.022509379133566803,0.0002336077581523222,10.34888831331893,10.34885081771959,0.00021258503401360543,20.86
0.40666666666666734,0.00010554493724947092,0.02299567797855392,0.0002335138682537581,10.350245700985136,10.350197777869406,0.00021258503401360543,20.86
0.4100000000000007,0.00010788144406177234,0.02348799405793101,0.00023342188983950702,10.351580049368177,10.351522704838786,0.00021258503401360543,20.86
0.41333333333333405,0.00011024479147768493,0.02398634189922284,0.00023333210477949584,10.352891754465354,10.352825953838158,0.00021258503401360543,20.86
0.4166666666666674,0.00011263497278225338,0.02449073578782875,0.00023324476412474703,10.354181205994829,10.354107873836957,0.00021258503401360543,20.86
0.42000000000000076,0.00011505198150926378,0.02500118977105805,0.00023316008946108944,10.35544878745033,10.355368807717593,0.00021258503401360543,20.86
0.4233333333333341,0.00011749581146460421,0.025517717662098195,0.00023307827425518273,10.356694876157158,10.356609092424632,0.00021258503401360543,20.86
0.42666666666666747,0.00011996645674653309,0.026040333043916796,0.00023299948518994877,10.357919843329471,10.357829059109289,0.00021258503401360543,20.86
0.4300000000000008,0.00012246391176300525,0.02656904927309863,0.0002329238634866977,10.359124054128799,10.359029033269312,0.00021258503401360543,20.86
0.4333333333333342,0.00012498817124620472,0.02710387948361867,0.000232851526211427,10.360307867723776,10.360209334884365,0.00021258503401360543,20.86
