Time,X,Y,Target X,Target Y,Heading,Speed,Left Voltage,Right Voltage
0,0,3,0,0,0,0,0,0
0.016666666666666666,0.002111057971145598,3.0000009467593194,3.1181517499397966,4.236303499879593,0.0007966959412462242,0.22564311556014138,7.07975036286075,7.634962724813258
0.03333333333333333,0.007730507306146188,3.0000119925774307,3.1189375770121366,4.237875154024273,0.00291636078979435,0.4243453445490317,7.322347924031346,7.895526893725866
0.04999999999999997,0.016441473114693763,3.0000531384026004,3.120389577997975,4.24077915599595,0.006198506877578274,0.5995427540589697,7.543113366147628,8.131623643095333
0.06666666666666661,0.027879786144088606,3.000151126065324,3.122439388712285,4.24487877742457,0.010500869799606674,0.7542025010727936,7.743919598248609,8.345359647835611
0.08333333333333325,0.04172670993151715,3.000336139421122,3.125030408375845,4.25006081675169,0.015697180031684327,0.8908908364309733,7.926501293670491,8.538688682148717
0.09999999999999988,0.057702724045979356,3.0006395139190434,3.128115352543067,4.256230705086134,0.021675241638191407,1.0118307557204183,8.092460495085875,8.713417426717038
0.11666666666666652,0.0755622137085274,3.0010921813794513,3.1316543464667856,4.263308692933571,0.02833527121204963,1.1189509297339228,8.24327304438571,8.871212258981782
0.13333333333333322,0.09508893312939143,3.0017236481662293,3.1356134367038115,4.271226873407623,0.03558845781069426,1.2139272834950323,8.380295522287668,9.013606667888657
0.15,0.1160921270397356,3.0025613578170764,3.139963426800448,4.279926853600896,0.04335571098935129,1.29821837242122,8.504772453179244,9.142009013784829
0.16666666666666677,0.1384032110004761,3.00363032836132,3.1446789644437065,4.289357928887413,0.05156656930613361,1.3730955198519461,8.617843587590336,9.25771041835772
0.18333333333333354,0.16187292561814381,3.0049529835691144,3.1497378240206886,4.299475648041377,0.060158246064893624,1.4396685259324278,8.720551120407054,9.361892621254421
0.20000000000000032,0.18636889261385678,3.0065491188730578,3.1551203412561235,4.310240682512247,0.06907479272244121,1.4989076287462302,8.813846739556897,9.455635681533478
0.2166666666666671,0.21177351179532516,3.0084359586306126,3.1608089663895647,4.321617932779129,0.07826636344154378,1.5516622904842834,8.898598429100561,9.539925435236078
0.23333333333333386,0.2379821474927869,3.0106282731934053,3.166787909894991,4.333575819789982,0.08768856682327905,1.5986772908675597,8.975596973832783,9.615660646662539
0.2500000000000006,0.26490156110192153,3.013138532983086,3.1730428605611127,4.3460857211222255,0.0973018929871217,1.6406065341221234,9.045562130750593,9.683659811676739
0.2666666666666671,0.2924485532070044,3.0159770832319728,3.179560760242215,4.35912152048443,0.10707120595514137,1.6780249121334194,9.109148447016869,9.74466758758581
0.2833333333333336,0.32054878450806445,3.0191523278149894,3.1863296230635725,4.372659246127145,0.11696529279622583,1.7114385129747394,9.16695071508826,9.799360836717128
0.3000000000000001,0.349135749605289,3.0226709141114227,3.193338389557167,4.386676779114334,0.12695646224562362,1.7412934191381042,9.21950906411217,9.848354280447111
0.3166666666666666,0.37814988174378594,3.0265379134129926,3.2005768082922774,4.401153616584555,0.13702018657434747,1.7679833020964073,9.267313693037293,9.892205767705244
0.3333333333333331,0.4075377700153442,3.0307569932783873,3.2080353391890015,4.416070678378003,0.14713478137527478,1.7918559881264267,9.310809255544246,9.931421167354696
0.3499999999999996,0.4372514733569015,3.0353305796020926,3.215705073966635,4.43141014793327,0.15728111868566308,1.8132191436484058,9.35039891022813,9.966458897723928
0.3666666666666661,0.4672479180680312,3.040260007149973,3.223577670164057,4.447155340328114,0.1674423695021372,1.8323452058750496,9.386448051732216,9.997734109244666
0.3833333333333326,0.49748613967629857,3.0455450016507815,3.231645152638053,4.463290305276106,0.17758069237320787,1.8491796001975047,9.419284255443328,10
0.3999999999999991,0.5279257336320139,3.0511822947053515,3.239898577424434,4.479797154848868,0.18762359893667932,1.8638827095230643,9.449173405660074,10
0.4166666666666656,0.5585312028529731,3.05716620723987,3.2483284806563524,4.496656961312705,0.19751099097006597,1.876741379586072,9.47634488746161,10
0.43333333333333207,0.5892719348506303,3.0634893082674224,3.2569256204299637,4.513851240859927,0.2071989019285472,1.888001437027473,9.501012049465524,10
0.44999999999999857,0.6201215420385342,3.070142902900232,3.265681064671656,4.531362129343312,0.21665646323861354,1.8978738024347621,9.523373359698695,10
0.46666666666666506,0.6510572869410606,3.077117438249568,3.2745862463372974,4.549172492674595,0.2258633776900998,1.90653966907704,9.543613152551462,10
0.48333333333333156,0.682059581523632,3.084402836187982,3.283633003382668,4.567266006765336,0.2348078195311507,1.914154892284904,9.561902397447028,10
0.49999999999999806,0.7131115514422329,3.0919887622561055,3.2928136052078085,4.585627210415617,0.2434846932653492,1.920853711738749,9.578399473341292,10
0.516666666666665,0.7441986572383875,3.099864839692277,3.3021207675398676,4.604241535079735,0.25189419366535765,1.9267519098120574,9.593250936826728,10
0.5333333333333321,0.7753083654969981,3.1080208169133585,3.311547657737181,4.623095315474362,0.26004061843488596,1.9319494930052565,9.606592274585019,10
0.5499999999999992,0.8064298638113174,3.1164466959540884,3.3210878923766236,4.642175784753247,0.26793139251057846,1.9365329699262839,9.618548633335593,10
0.5666666666666662,0.8375538141086027,3.125132828492371,3.330735528794332,4.661471057588664,0.27557626940173613,1.9405772878270193,9.62923552236002,10
0.5833333333333333,0.8686721395112281,3.134069985218395,3.340485052029882,4.680970104059764,0.2829866803924383,1.9441474800539034,9.638759485228668,10
0.6000000000000003,0.8997778404597798,3.143249403487055,3.3503313584018417,4.700662716803683,0.2901752070254333,1.9473000686334665,9.647218738584627,10
0.6166666666666674,0.93086483631867,3.152662817447097,3.3602697367334056,4.720539473466811,0.29715515617586696,1.9500842593506498,9.654703776808493,10
0.6333333333333344,0.9619278291287147,3.162302474175704,3.3702958480580363,4.740591696116073,0.3039402203124268,1.9525429608892098,9.661297942143547,10
0.6500000000000015,0.9929621865701959,3.1721611387649578,3.380405704469972,4.760811408939944,0.3105442083246862,1.95471365472,9.667077960444024,10
0.6666666666666685,1.0239638415581476,3.182232090803223,3.390595647643171,4.781191295286342,0.31698083464558796,1.9566291383023264,9.672114443151756,10
0.6833333333333356,1.0549292062122464,3.192509114263808,3.400862327423641,4.801724654847282,0.323263556382748,1.9583181606859061,9.676472356436026,10
0.7000000000000026,1.0858550982296975,3.202986482447913,3.4112026808018565,4.822405361603713,0.32940544984734216,1.959805966665358,9.680211458669639,10
0.7166666666666697,1.116738677943685,3.2136589393211685,3.421613911491687,4.843227822983374,0.335419119282115,1.9611147631604866,9.683386707579622,10
0.7333333333333367,1.1475773945749295,3.2245216783255244,3.4320934702774486,4.864186940554897,0.34131663178072286,1.962264119402303,9.686048638518459,10
0.7500000000000038,1.1783689403823538,3.235570319533819,3.442639036238869,4.885278072477738,0.34710947339330717,1.9632713107363813,9.688243715363445,10
0.7666666666666708,1.209111211593214,3.2468008858367394,3.453248498922902,4.906496997845804,0.3528085222568545,1.9641516143608628,9.690014655577777,10
0.7833333333333379,1.2398022751457933,3.258209778705412,3.46391994149941,4.92783988299882,0.35842403529808003,1.9649185640534392,9.691400730965478,10
0.8000000000000049,1.270440340411098,3.2697937539526274,3.474651624913174,4.949303249826348,0.36396564565210743,1.9655841698737264,9.692438045629482,10
0.816666666666672,1.3010237351760998,3.281549897817447,3.4854419730260746,4.970883946052149,0.3694423684397612,1.9661591079242315,9.69315979260397,10
0.833333333333339,1.3315508852718747,3.293475603617979,3.4962895587294867,4.992579117458973,0.37486261296479023,1.9666528844888838,9.693596490582143,10
0.8500000000000061,1.362020297317329,3.3055685491524414,3.5071930909968674,5.014386181993735,0.38023419974248823,1.9670739782212465,9.693776202102777,10
0.8666666666666731,1.3924305441246967,3.3178266749764838,3.5181514028395804,5.036302805679161,0.3855643810636811,1.9674299635067698,9.693724734495781,10
0.8833333333333402,1.42278025237812,3.330248163643087,3.529163440124306,5.058326880248612,0.39085986404201445,1.9677276176594376,9.69346582482058,10
0.9000000000000072,1.4530680922527228,3.3428314199582054,3.5402282512076444,5.080456502415289,0.3961268352955568,1.967973014219866,9.693021309963273,10
0.9166666666666743,1.4832927686898083,3.355575052279227,3.551344977342131,5.102689954684262,0.40137098658245957,1.968171604288424,9.692411282990662,10
0.9333333333333413,1.5134530140852294,3.3684778548629697,3.562512843807587,5.125025687615174,0.40659754085024785,1.9683282875440165,9.691654236791832,10
0.9500000000000084,1.5435475821834852,3.3815387912542367,3.573731151722231,5.147462303444462,0.41181127827392583,1.9684474743589506,9.690767195972501,10
0.9666666666666754,1.5735752430005168,3.3947569786941005,3.5849992704891127,5.169998540978225,0.41701656195334974,1.9685331402163322,9.68976583790377,10
0.9833333333333425,1.6035347786241867,3.4081316735182807,3.596316630834906,5.192633261669812,0.4222173630185981,1.9685888734629728,9.68866460376582,10
1.0000000000000095,1.6334249797636855,3.42166225750964,3.607682718399971,5.215365436799942,0.42741728495609355,1.968617917283335,9.68747680036897,10
1.0166666666666766,1.663244642938093,3.4353482251645033,3.619097067840537,5.238194135681074,0.43261958702039655,1.9686232066544684,9.686214693479041,10
1.0333333333333437,1.6929925682105444,3.4491891718297314,3.63055925740601,5.26111851481202,0.43782720663883967,1.9686074009349754,9.684889593321724,10
1.0500000000000107,1.722667557388277,3.463184782665962,3.6420689039565475,5.284137807913095,0.44304278075019815,1.9685729126498395,9.683511932891289,10
1.0666666666666778,1.7522684126206223,3.4773348223918945,3.653625658388187,5.307251316776374,0.4482686660457654,1.9685219329551835,9.68209133964265,10
1.0833333333333448,1.7817939353370436,3.4916391257646997,3.6652292014349546,5.330458402869909,0.45350695810272856,1.96845645420057,9.680636701102452,10
1.1000000000000119,1.8112429254758755,3.506097588752436,3.6768792398194243,5.353758479638849,0.45875950941657356,1.9683782899496494,9.679156224894221,10
1.116666666666679,1.84061418096169,3.5207101603555566,3.688575502725193,5.377151005450386,0.4640279463522435,1.9682890927713714,9.677657493634891,10
1.133333333333346,1.8699064973954114,3.535476835036132,3.7003177385666266,5.400635477133253,0.4693136850436041,1.9681903700723162,9.676147515124743,10
1.150000000000013,1.8991186679265546,3.5503976457151447,3.712105712033043,5.424211424066086,0.47461794627801274,1.9680834982049924,9.674632768220077,10
1.16666666666668,1.9282494832814507,3.5654726573001283,3.7239392013861856,5.447878402772371,0.47994176940794175,1.9679697350562806,9.673119244747577,10
1.1833333333333471,1.9572977319251088,3.58070196070736,3.735817995991453,5.471635991982906,0.4852860253350469,1.9678502312938357,9.671612487791148,10
1.2000000000000142,1.9862622003376054,3.5960856673448576,3.7477418940648404,5.495483788129681,0.49065142861416305,1.9677260404255532,9.670117626655887,10
1.2166666666666812,2.015141673388629,3.6116239040244253,3.7597107006189594,5.519421401237919,0.4960385487256969,1.9675981278076464,9.668639408789767,10
1.2333333333333483,2.0439349347961375,3.6273168082729645,3.7717242255927927,5.5434484511855855,0.5014478205650256,1.9674673787199772,9.667182228921176,10
1.2500000000000153,2.0726407676570577,3.643164524015214,3.7837822821510643,5.5675645643021285,0.5068795541969766,1.9673346056126897,9.665750155649919,10
1.2666666666666824,2.1012579550396486,3.659167197601936,3.795884685140229,5.591769370280458,0.5123339439224129,1.967200554615534,9.664346955710169,10
1.2833333333333494,2.1297852806285382,3.6753249741593597,3.8080312496891064,5.616062499378213,0.5178110767025118,1.9670659113903206,9.662976116106265,10
1.3000000000000165,2.158221529414687,3.691637994237391,3.820221789943181,5.640443579886362,0.5233109399846129,1.9669313063973939,9.661640864306042,10
1.3166666666666835,2.1865654884235295,3.708106390735719,3.832456117922435,5.66491223584487,0.5288334289715858,1.9667973196387487,9.66034418666132,10
1.3333333333333506,2.2148159474754174,3.724730286088482,3.8447340424934286,5.689468084986857,0.5343783533746284,1.966664484933167,9.659088845211496,10
1.3500000000000176,2.242971699973214,3.7415097896895673,3.857055368447079,5.714110736894158,0.5399454436872825,1.9665332937724642,9.657877393013264,10
1.3666666666666847,2.271031543712527,3.758444995541982,3.8694198956742807,5.738839791348561,0.5455343570163027,1.9664041988023926,9.656712188127898,10
1.3833333333333517,2.2989942817105735,3.775535980115974,3.8818274184321426,5.763654836864285,0.5511446825028626,1.9662776169669423,9.65559540638665,10
1.4000000000000188,2.326858723050132,3.792782800401757,3.8942777246942035,5.788555449388407,0.5567759463654649,1.9661539323505086,9.654529053044769,10
1.4166666666666858,2.354623683735402,3.8101854921437717,3.906770595578511,5.813541191157022,0.5624276165938528,1.9660334987486872,9.65351497342554,10
1.4333333333333529,2.3822879875569156,3.827744068244406,3.919305804847944,5.838611609695888,0.5680991073212133,1.9659166419951397,9.652554862647277,10
1.45000000000002,2.409850466962923,3.845458517326058,3.9318831184775935,5.863766236955187,0.5737897829000415,1.9658036620691073,9.65165027451824,10
1.466666666666687,2.4373099639348963,3.8633288024412398,3.9445022942844394,5.889004588568879,0.5794989617051853,1.9656948350055368,9.650802629677447,10
1.483333333333354,2.464665330864986,3.8813548599212484,3.9571630816149015,5.914326163229803,0.5852259196858485,1.9655904146275534,9.650013223052587,10
1.500000000000021,2.491915431433459,3.8995365983546084,3.9698652210862297,5.9397304421724595,0.5909698936866538,1.9654906341189518,9.649283230700169,10
1.5166666666666881,2.5190591414842505,3.917873897687204,3.9826084443779437,5.965216888755887,0.5967300845563186,1.965395707452623,9.6486137160874,10
1.5333333333333552,2.546095349896925,3.936366608436584,3.995392474069881,5.990784948139762,0.60250566006101,1.9653058306891973,9.648005635870097,10
1.5500000000000222,2.5730229594534104,3.955014551013514,4.008217023523608,6.016434047047215,0.6082957576180669,1.9652211831587743,9.647459845216217,10
1.5666666666666893,2.5998408876980066,3.973817515144323,4.021081796804218,6.042163593608437,0.6140994868644866,1.9651419285373402,9.646977102720045,10
1.5833333333333564,2.6265480677891926,3.9927752593880874,4.033986488639748,6.067972977279496,0.6199159320733709,1.9650682158283097,9.64655807494819,10
1.6000000000000234,2.6531434493418997,4.011887510743098,4.046930784415611,6.093861568831223,0.6257441544303951,1.965000180258623,9.646203340654697,10
1.6166666666666905,2.67962599925892,4.031153964337446,4.059914360201662,6.119828720403325,0.6315831941813317,1.964937944097894,9.645913394699184,10
1.6333333333333575,2.7059947025502096,4.050574283198909,4.072936882809621,6.145873765619243,0.6374320726606916,1.9648816174082946,9.645688651698736,10
1.6500000000000246,2.7322485631389095,4.070148098099638,4.085998009878773,6.171996019757546,0.643289794210651,1.9648312987320846,9.645529449441444,10
1.6666666666666916,2.758386604652929,4.089875007471438,4.0990973899879455,6.198194779975891,0.6491553479986096,1.9647870757230679,9.645436052086675,10
1.6833333333333587,2.784407871201008,4.109754577387669,4.112234662791936,6.224469325583873,0.6550277097409665,1.9647490257275941,9.645408653174835,10
1.7000000000000257,2.8103114281322146,4.129786341608081,4.125409459180617,6.250818918361235,0.6609058433399987,1.9647172163202296,9.645447378467074,10
1.7166666666666928,2.8360963627778792,4.149969801683047,4.138621401459087,6.277242802918174,0.6667887024400905,1.964691705798683,9.645552288633278,10
1.7333333333333598,2.8617617851750023,4.1703044271139005,4.151870103547303,6.303740207094607,0.6726752319089655,1.9646725436421428,9.64572338180487,10
1.7500000000000269,2.887306828770246,4.190789655566237,4.1651551711977275,6.330310342395455,0.6785643692490427,1.9646597709367741,9.64596059600714,10
1.766666666666694,2.9127306511036117,4.211424893133183,4.17847620222957,6.35695240445914,0.6844550459435419,1.9646534207717363,9.646263811484271,10
1.783333333333361,2.9380324344710114,4.232209514645818,4.191832786778312,6.383665573556623,0.6903461887415141,1.9646535186087783,9.64663285292879,10
1.800000000000028,2.9632113865649345,4.253142864028033,4.2052245075592385,6.410449015118476,0.6962367208855713,1.964660082628128,9.647067491625734,10
1.816666666666695,2.988266741092483,4.274224254693217,4.21865094014376,6.437301880287522,0.7021255632857069,1.9646731240531403,9.647567447520807,10
1.8333333333333621,3.013197758370084,4.295452969980312,4.232111653247379,6.464223306494757,0.7080116356422734,1.9646926474559117,9.648132391220503,10
1.8500000000000292,3.0380037258942427,4.316828263626832,4.245606209028173,6.491212418056346,0.7138938575208782,1.964718651045828,9.648761945931321,10
1.8666666666666962,3.0626839588877237,4.338349360276545,4.259134163394767,6.518268326789533,0.719771149381674,1.9647511269428328,9.649455689344176,10
1.8833333333333633,3.087237800820629,4.36001545601962,4.272695066322742,6.545390132645483,0.7256424335652847,1.9647900614369753,9.650213155469379,10
1.9000000000000303,3.1116646239058507,4.381825718963068,4.286288462178524,6.572576924357048,0.7315066352373808,1.9648354352356714,9.651033836426818,10
1.9166666666666974,3.1359638295684644,4.4037792898294175,4.299913890049805,6.599827780099609,0.7373626832937162,1.964887223699911,9.651917184195161,10
1.9333333333333644,3.1601348488886276,4.4258752825816154,4.313570884081592,6.6271417681631855,0.7432095112272677,1.964945397070556,9.652862612323535,10
1.9500000000000315,3.1841771430176515,4.448112785072193,4.327258973817033,6.654517947634066,0.7490460579589496,1.9650099206856766,9.6538694976084,10
1.9666666666666985,3.208090203566914,4.470490859714807,4.340977684542142,6.6819553690842834,0.7548712686332456,1.9650807551898426,9.65493718173798,10
1.9833333333333656,3.2318735529693643,4.493008544176311,4.354726537633674,6.709453075267348,0.7606840953799688,1.9651578567360979,9.656064972906123,10
2.0000000000000324,3.2555267448133973,4.515664852087587,4.368505050909327,6.737010101818655,0.7664834980432521,1.9652411771813292,9.657252147397116,10
2.0166666666666972,3.2790493641489307,4.538458773771354,4.382312738979561,6.764625477959122,0.7722684448787731,1.9653306642755852,9.658497951142676,10
2.033333333333362,3.302441027765572,4.561389276985295,4.3961491136002895,6.792298227200579,0.7780379132201409,1.9654262618458873,9.659801601251958,10
2.050000000000027,3.325701384442804,4.584455307678836,4.410013684025786,6.820027368051573,0.7837908901152828,1.9655279099749556,9.661162287515294,10
2.0666666666666917,3.3488301151721496,4.607655790761976,4.423905957361113,6.847811914722225,0.7895263729336257,1.9656355451752514,9.662579173882088,10
2.0833333333333566,3.3718269333513575,4.630989630884601,4.437825438913466,6.8756508778269305,0.7952433699447921,1.965749100558653,9.664051399913088,10
2.1000000000000214,3.3946915849506647,4.654455713224773,4.451771632541806,6.903543265083613,0.800940900869499,1.9658685060020487,9.665578082207167,10
2.1166666666666862,3.4174238486512456,4.678052904284506,4.465744041004227,6.931488082008452,0.8066179974033,1.9659936883090852,9.667158315802567,10
2.133333333333351,3.440023535956005,4.701780052691606,4.479742166302449,6.959484332604899,0.8122737037137784,1.9661245713682711,9.66879117555247,10
