Time,X,Y,Target X,Target Y,Heading,Speed,Left Voltage,Right Voltage
0,0,0,0.0,0.0,0,0,0,0
0.016666666666666666,0.0008549284162946878,-7.985511794257155e-07,0.0047619047619047615,-0.0047619047619047615,-0.0016578706128047745,0.09155581593923692,3.574192605121362,2.4188714317683884
0.03333333333333333,0.0031468113611129787,-1.0179510355531551e-05,0.014285714285714285,-0.014285714285714285,-0.006068353347515568,0.1736009979928305,3.7402018738794336,2.5478820984317476
0.04999999999999997,0.00672742248489254,-4.538595398668698e-05,0.023809523809523798,-0.023809523809523798,-0.012896218468191632,0.24724806086682483,3.891892203232815,2.6684605646419435
0.06666666666666661,0.011465429063439586,-0.00012985688772600246,0.033333333333333305,-0.033333333333333305,-0.021843291065644532,0.31346483235021677,4.030360075977289,2.781245884071631
0.08333333333333325,0.01724398666297259,-0.0002905097743295779,0.042857142857142816,-0.042857142857142816,-0.03264387607077802,0.3730945388098228,4.156615838627534,2.8868179103972023
0.09999999999999988,0.02395867274229209,-0.0005557811027245397,0.05238095238095232,-0.05238095238095232,-0.045060821949513545,0.4268729832910098,4.271590254416043,2.9857033991692594
0.11666666666666652,0.031515731002654576,-0.0009542302598128953,0.061904761904761824,-0.061904761904761824,-0.05888212566961335,0.47544324922656495,4.376140667117853,3.0783814337613777
0.13333333333333322,0.0398305912049107,-0.001513561558697376,0.07142857142857133,-0.07142857142857133,-0.0739179972620065,0.5193682970652563,4.471056770429692,3.1652882641900066
0.15,0.04882662776222069,-0.0022599562934368283,0.08095238095238091,-0.08095238095238091,-0.08999831537638328,0.5591417655517049,4.557065988555063,3.246821632503117
0.16666666666666677,0.058434122075904225,-0.0032176342523483185,0.0904761904761905,-0.0904761904761905,-0.10697041612442902,0.5951972423220954,4.634838479910481,3.323344646343168
0.18333333333333354,0.06858939674357244,-0.004408584618442513,0.10000000000000009,-0.10000000000000009,-0.12469716659503709,0.6279162285999776,4.704991779394891,3.3951892526159404
0.20000000000000032,0.07923409351308033,-0.005852421422691991,0.10952380952380966,-0.10952380952380966,-0.14305528202418713,0.6576349889740206,4.76809509657022,3.4626593554508585
0.2166666666666671,0.0903145706634094,-0.007566330047038957,0.11904761904761925,-0.11904761904761925,-0.16193385196165933,0.6846504485826563,4.824673288034214,3.5260336164161106
0.23333333333333386,0.10178139908805155,-0.00956507970821451,0.12857142857142884,-0.12857142857142884,-0.1812330461060237,0.7092252757322616,4.8752105226037425,3.5855679699242544
0.2500000000000006,0.11358893960688952,-0.011861083139807875,0.1380952380952384,-0.1380952380952384,-0.2008629749505413,0.7315922673703684,4.9201536578880045,3.6414978826679336
0.2666666666666671,0.1256949868925892,-0.014464489383785419,0.1476190476190479,-0.1476190476190479,-0.22074268413815687,0.7519581373597232,4.959915346546518,3.6940403825531902
0.2833333333333336,0.13806046786800974,-0.017383299114716783,0.15714285714285733,-0.15714285714285733,-0.24079926458173337,0.7705067926750933,4.994876890075408,3.743395879787781
0.3000000000000001,0.1506491845375992,-0.02062349455427397,0.16666666666666677,-0.16666666666666677,-0.26096706306415574,0.7874021700675211,5.025390857396956,3.7897498004088885
0.3166666666666666,0.16342759299489013,-0.02418917801497689,0.1761904761904762,-0.1761904761904762,-0.2811869802734898,0.8027906950668836,5.051783484875105,3.833274050503348
0.3333333333333331,0.17636461184023286,-0.028082714607063377,0.1857142857142856,-0.1857142857142856,-0.301405845118972,0.8168034161320632,5.074356873667244,3.8741283276112917
0.3499999999999996,0.18943145448721113,-0.03230487577398937,0.19523809523809504,-0.19523809523809504,-0.32157585577085623,0.8295578590621354,5.093390999568663,3.9124612942563193
0.3666666666666661,0.20260148086923271,-0.0368549811817588,0.20476190476190448,-0.20476190476190448,-0.34165407921832924,0.8411596402428373,5.109145549725275,3.9484116271707097
0.3833333333333326,0.21585006491214795,-0.041731037142828026,0.21428571428571389,-0.21428571428571389,-0.36160200228429473,0.851703871743225,5.121861599795068,3.9821089545519053
0.3999999999999991,0.22915447484288085,-0.04692987025709932,0.22380952380952332,-0.22380952380952332,-0.3813851280068008,0.86127638654818,5.131763144339717,4.013674692573274
0.4166666666666656,0.24249376398245184,-0.05244725533800423,0.23333333333333275,-0.23333333333333275,-0.4009726121218469,0.869954808186466,5.139058492434153,4.043222791360371
0.43333333333333207,0.2558486701452959,-0.05827803698884025,0.24285714285714216,-0.24285714285714216,-0.42033693508433656,0.8778094855842014,5.143941539700902,4.070860399720379
0.44999999999999857,0.2692015221530782,-0.064416244424259,0.2523809523809516,-0.2523809523809516,-0.4394536056623812,0.8849043110491618,5.1465929272143365,4.0966884570666116
0.46666666666666506,0.2825361522851398,-0.07085519930977123,0.26190476190476103,-0.26190476190476103,-0.45830089265121804,0.8912974367955457,5.147181096982489,4.120802220203904
0.48333333333333156,0.29583781374171936,-0.07758761653010873,0.27142857142857046,-0.27142857142857046,-0.4768595816902647,0.8970419032868335,5.145863253004926,4.143291731928003
0.49999999999999806,0.3090931024006201,-0.08460569790415211,0.2809523809523799,-0.2809523809523799,-0.49511275454170095,0.9021861908512613,5.142786236227378,4.164242237737099
0.516666666666665,0.3222898823117231,-0.09190121894663775,0.29047619047618944,-0.29047619047618944,-0.5130455885110267,0.9067747044637584,5.138087321069352,4.183734556352074
0.5333333333333321,0.3354172145039541,-0.09946560884013836,0.29999999999999916,-0.29999999999999916,-0.5306451739673345,0.9108482002507072,5.131894940591453,4.201845409189895
0.5499999999999992,0.34846528878202887,-0.10729002382881535,0.3095238095238089,-0.3095238095238089,-0.5479003481603266,0.9144441611262837,5.124329346794997,4.2186477134282185
0.5666666666666662,0.36142535827057637,-0.11536541428122188,0.31904761904761864,-0.31904761904761864,-0.564801543738104,0.9175971279832912,5.115503212008058,4.234210842835607
0.5833333333333333,0.3742896765252448,-0.12368258569537706,0.3285714285714284,-0.3285714285714284,-0.5813406505492476,0.9203389920134557,5.105522176808836,4.24860086011773
0.6000000000000003,0.3870514370776096,-0.1322322539373076,0.33809523809523817,-0.33809523809523817,-0.597510889468761,0.9226992530018845,5.0944853494685765,4.261880724142807
0.6166666666666674,0.3997047153160089,-0.1410050950157611,0.3476190476190479,-0.3476190476190479,-0.613306697123455,0.9247052478106547,5.082485761461116,4.274110475056692
0.6333333333333344,0.4122444126302046,-0.1499917897020336,0.35714285714285765,-0.35714285714285765,-0.6287236205112168,0.926382352722769,5.0696107831831645,4.285347399976938
0.6500000000000015,0.4246662027659854,-0.15918306330579834,0.36666666666666736,-0.36666666666666736,-0.6437582206127767,0.9277541628476002,5.055942503657336,4.29564618166351
0.6666666666666685,0.4369664803481024,-0.16856972091627756,0.37619047619047713,-0.37619047619047713,-0.6584079841861054,0.9288426513819652,5.0415580776471485,4.305059032299433
0.6833333333333356,0.4491423115375944,-0.1781426784137229,0.38571428571428684,-0.38571428571428684,-0.6726712430142293,0.9296683111681902,5.026530043297965,4.31363581427528
0.7000000000000026,0.4611913867937009,-0.18789298954952238,0.3952380952380966,-0.3952380952380966,-0.6865470999485049,0.9302502806843075,5.010926613128796,4.321424149655156
0.7166666666666697,0.47311197571206387,-0.19781186938479672,0.4047619047619063,-0.4047619047619063,-0.7000353611525314,0.9306064563354248,4.994811940934942,4.328469519806856
0.7333333333333367,0.4849028839104952,-0.20789071436747808,0.4142857142857161,-0.4142857142857161,-0.7131364740079719,0.9307535926837306,4.9782463669194605,4.3348153565031975
0.7500000000000038,0.49656341193181874,-0.21812111931691947,0.42380952380952586,-0.42380952380952586,-0.7258514701935238,0.9307073920528816,4.9612866431504035,4.340503125643851
0.7666666666666708,0.5080933161306245,-0.228494891573345,0.43333333333333557,-0.43333333333333557,-0.7381819134929102,0.9304825847665366,4.94398614123931,4.345572404605302
0.7833333333333379,0.5194927715075769,-0.239004062557159,0.44285714285714534,-0.44285714285714534,-0.7501298519277388,0.9300930011271515,4.926395043953147,4.350060954099967
0.8000000000000049,0.5307623364514696,-0.2496408969705015,0.45238095238095505,-0.45238095238095505,-0.7616977738469631,0.9295516361068255,4.9085605223050806,4.354004785312111
0.816666666666672,0.5419029193457248,-0.26039789986063205,0.4619047619047648,-0.4619047619047648,-0.7728885676369779,0.9288707076044324,4.890526899518148,4.357438222977175
0.833333333333339,0.5529157469926737,-0.271267821751898,0.4714285714285745,-0.4714285714285745,-0.7837054847455228,0.9280617090203009,4.872335803118467,4.360393964981161
0.8500000000000061,0.5638023348058271,-0.28224366204031676,0.4809523809523843,-0.4809523809523843,-0.7941521057389191,0.9271354568094176,4.854026306290137,4.362903138976796
0.8666666666666731,0.5745644587175331,-0.29331867083227736,0.49047619047619406,-0.49047619047619406,-0.8042323091360397,0.9261021335948902,4.8356350595112865,4.364995356442249
0.8833333333333402,0.5852041287469939,-0.30448634939662994,0.5000000000000038,-0.5000000000000038,-0.8139502427840938,0.9249713273538159,4.81719641338859,4.36669876454557
0.9000000000000072,0.5957235641715773,-0.3157404493875446,0.5095238095238135,-0.5095238095238135,-0.8233102975610403,0.9237520671265269,4.798742533515444,4.3680400961225825
0.9166666666666743,0.606125170242751,-0.32707497098404337,0.5190476190476233,-0.5190476190476233,-0.8323170832074149,0.9224528556463675,4.780303508095541,4.369044718027334
0.9333333333333413,0.6164115163867654,-0.3384841600810814,0.528571428571433,-0.528571428571433,-0.8409754061067855,0.9210816992398144,4.761907448998329,4.369736678071415
0.9500000000000084,0.6265853158294196,-0.3499625046564933,0.5380952380952427,-0.5380952380952427,-0.8492902488490515,0.9196461353050216,4.743580586844925,4.370138750731054
0.9666666666666754,0.6366494065838328,-0.3615047304280709,0.5476190476190524,-0.5476190476190524,-0.8572667514245628,0.918153257640137,4.725347360661722,4.370272481768281
0.9833333333333425,0.646606733740096,-0.373105795905492,0.5571428571428623,-0.5571428571428623,-0.8649101939096346,0.9166097398603315,4.707230502583698,4.37015823188408
1.0000000000000095,0.6564603329959544,-0.38476088693278965,0.566666666666672,-0.566666666666672,-0.8722259805156173,0.915021857113921,4.6892511180396275,4.369815219496982
1.0166666666666766,0.6662133153682628,-0.3964654108085432,0.5761904761904817,-0.5761904761904817,-0.8792196248843124,0.9133955062827561,4.671428761806555,4.369261562719401
1.0333333333333437,0.6758688530257984,-0.40821499006296985,0.5857142857142915,-0.5857142857142915,-0.8858967365223225,0.9117362248298323,4.6537815102804965,4.368514320585966
1.0500000000000107,0.6854301661851112,-0.4200054559636004,0.5952380952381012,-0.5952380952381012,-0.8922630082759259,0.9100492084374496,4.636326030273966,4.367589533572774
1.0666666666666778,0.6949005110123884,-0.4318328418142135,0.6047619047619109,-0.6047619047619109,-0.8983242047563734,0.9083393275619444,4.619077644618345,4.3665022634334765
1.0833333333333448,0.7042831684757822,-0.4436933761051767,0.6142857142857207,-0.6142857142857207,-0.9040861516331551,0.9066111430157435,4.602050394819582,4.36526663236734
1.1000000000000119,0.7135814340942725,-0.4555834755672668,0.6238095238095305,-0.6238095238095305,-0.9095547257198402,0.9048689206740165,4.585257100989407,4.363895861525439
1.116666666666679,0.7227986085308814,-0.4674997381754121,0.6333333333333402,-0.6333333333333402,-0.9147358457836042,0.9031166453913144,4.568709419250547,4.362402308853866
1.133333333333346,0.7319379889798943,-0.4794389361435911,0.6428571428571499,-0.6428571428571499,-0.9196354640155574,0.9013580342031088,4.552417896793072,4.3607975062670326
1.150000000000013,0.7410028612996569,-0.4913980089473084,0.6523809523809597,-0.6523809523809597,-0.9242595581045254,0.8995965488778982,4.5363920247400324,4.359092196139553
1.16666666666668,0.7499964928444843,-0.5033740564056444,0.6619047619047694,-0.6619047619047694,-0.9286141238620468,0.8978354078774319,4.520640288963403,4.357296367101855
1.1833333333333471,0.7589221259512136,-0.5153643318508022,0.6714285714285791,-0.6714285714285791,-0.9327051683510497,0.8960775977754164,4.505170218976067,4.355419289122138
1.2000000000000142,0.7677829720379509,-0.5273662354093435,0.6809523809523889,-0.6809523809523889,-0.9365387034750199,0.8943258841787926,4.489988435011958,4.35346954785576
1.2166666666666812,0.7765822062745775,-0.539377307415894,0.6904761904761987,-0.6904761904761987,-0.9401207399884618,0.8925828221901239,4.475100693394181,4.351455078242243
1.2333333333333483,0.7853229627865806,-0.5513952219769834,0.7000000000000084,-0.7000000000000084,-0.9434572818931342,0.8908507664447867,4.460511930280175,4.349383197329845
1.2500000000000153,0.7940083303557601,-0.5634177806998484,0.7095238095238181,-0.7095238095238181,-0.9465543211879279,0.889131880752392,4.446226303863255,4.347260636307963
1.2666666666666824,0.8026413485833017,-0.5754429065984497,0.7190476190476278,-0.7190476190476278,-0.949417832943355,0.8874281473681453,4.432247235101198,4.34509357172831
1.2833333333333494,0.8112250044826114,-0.5874686381866252,0.7285714285714376,-0.7285714285714376,-0.9520537706744702,0.8857413759165977,4.418577447035112,4.34288765589701
1.3000000000000165,0.8197622294711577,-0.5994931237661877,0.7380952380952474,-0.7380952380952474,-0.9544680619886614,0.884073211987402,4.405219002754883,4.340648046421018
1.3166666666666835,0.8282558967323685,-0.611514615915875,0.7476190476190571,-0.7476190476190571,-0.9566666044871325,0.8824251454202156,4.392173342061737,4.338379434894157
1.3333333333333506,0.8367088189203556,-0.6235314661853592,0.7571428571428669,-0.7571428571428669,-0.9586552619010834,0.8807985182937632,4.379441316873142,4.336086074709651
1.3500000000000176,0.845123746181921,-0.6355421199969838,0.7666666666666766,-0.7666666666666766,-0.960439860445585,0.8791945326321999,4.36702322541071,4.333771807988226
1.3666666666666847,0.853503364471895,-0.6475451117565405,0.7761904761904863,-0.7761904761904863,-0.9620261853759547,0.8776142578403348,4.354918845207907,4.331440091612872
1.3833333333333517,0.8618502941393941,-0.6595390601731791,0.785714285714296,-0.785714285714296,-0.9634199777330834,0.8760586378778931,4.34312746497073,4.32909402236348
1.4000000000000188,0.8701670887640498,-0.6715226637874742,0.7952380952381058,-0.7952380952381058,-0.9646269312656514,0.874528498181824,4.331647915321726,4.326736361146851
1.4166666666666858,0.8784562342226464,-0.6834946967057213,0.8047619047619156,-0.8047619047619156,-0.9656526895185152,0.873024552344658,4.3204785984550655,4.324369556319682
1.4333333333333529,0.8867201479679372,-0.6954540045377127,0.8142857142857253,-0.8142857142857253,-0.9665028430777578,0.8715474085560789,4.3096175167282516,4.321995766104377
1.45000000000002,0.8949611785026477,-0.7073995005345146,0.8238095238095351,-0.8238095238095351,-0.9671829269639785,0.8700975758141539,4.299062300214233,4.3196168800996375
1.466666666666687,0.9031816050328623,-0.7193301619221502,0.8333333333333448,-0.8333333333333448,-0.9676984181663746,0.8686754699120833,4.288810233236124,4.317234539889846
1.483333333333354,0.9113836372860998,-0.7312450264265563,0.8428571428571545,-0.8428571428571545,-0.9680547333110275,0.8672814192058296,4.278858279905531,4.314850158759317
1.500000000000021,0.9195694154804305,-0.7431431889847284,0.8523809523809642,-0.8523809523809642,-0.968257226457575,0.8659156701675912,4.26920310868443,4.3124649405193445
1.5166666666666881,0.9277410104319662,-0.7550237986365932,0.861904761904774,-0.861904761904774,-0.9683111870191304,0.8645783927297593,4.259841115989743,4.310079897457841
1.5333333333333552,0.935900423788975,-0.7668860555918391,0.8714285714285838,-0.8714285714285838,-0.9682218378009055,0.8632696854237406,4.2507684488591515,4.307695867423037
1.5500000000000222,0.944049588381727,-0.7787292084656796,0.8809523809523935,-0.8809523809523935,-0.9679943331535045,0.8619895803178242,4.2419810266962195,4.30531353005437
1.5666666666666893,0.9521903686779822,-0.7905525516773404,0.8904761904762033,-0.8904761904762033,-0.9676337572373231,0.8607380477581281,4.233474562112532,4.302933422175125
1.5833333333333564,0.9603245613347683,-0.8023554230049109,0.900000000000013,-0.900000000000013,-0.9671451223948574,0.8595150009165402,4.225244580884419,4.300555952362799
1.6000000000000234,0.9684538958377961,-0.814137201290108,0.9095238095238227,-0.9095238095238227,-0.9665333676280679,0.8583203001495058,4.217286441041659,4.298181414714399
1.6166666666666905,0.976580035220497,-0.8258973042864389,0.9190476190476324,-0.9190476190476324,-0.9658033571782221,0.8571537571714531,4.2095953511055715,4.295810001825007
1.6333333333333575,0.9847045768552625,-0.8376351866442336,0.9285714285714423,-0.9285714285714423,-0.9649598792058673,0.8560151390466472,4.202166387493944,4.293441816998998
1.6500000000000246,0.992829053310015,-0.8493503380260291,0.938095238095252,-0.938095238095252,-0.964007644568781,0.854904172003228,4.194994511110302,4.291076885714122
1.6666666666666916,1.0009549332637466,-0.8610422813458274,0.9476190476190617,-0.9476190476190617,-0.9629512856958964,0.8538205450732363,4.188074583135239,4.288715166359527
1.6833333333333587,1.0090836224751325,-0.8727105711258208,0.9571428571428715,-0.9571428571428715,-0.9617953555553256,0.8527639135624236,4.181401380037617,4.286356560269404
1.7000000000000257,1.0172164647987538,-0.8843547919642684,0.9666666666666812,-0.9666666666666812,-0.9605443267146906,0.8517339023536916,4.17496960782368,4.284000921074507
1.7166666666666928,1.0253547432438657,-0.8959745571083149,0.9761904761904909,-0.9761904761904909,-0.9592025904920436,0.8507301090480397,4.168773915542347,4.2816480633943
1.7333333333333598,1.0334996810710049,-0.9075695071256812,0.9857142857143006,-0.9857142857143006,-0.9577744561956985,0.849752106946934,4.162808908065078,4.279297770892779
1.7500000000000269,1.041652442922078,-0.9191393086692917,0.9952380952381105,-0.9952380952381105,-0.9562641504513251,0.8487994478800606,4.1570691581590395,4.276949803721325
1.766666666666694,1.0498141359798614,-0.9306836533290662,1.00476190476192,-1.00476190476192,-0.9546758166146645,0.8478716648824669,4.151549217872334,4.2746039053720875
1.783333333333361,1.05798581115315,-0.9422022565652753,1.01428571428573,-1.01428571428573,-0.9530135142682201,0.846968274725127,4.146243629250405,4.272259808965516
1.800000000000028,1.0661684642840286,-0.953694856718032,1.0238095238095397,-1.0238095238095397,-0.9512812188002694,0.8460887803030097,4.1411469344027605,4.269917242995622
1.816666666666695,1.0743630373739987,-0.9651612140876834,1.0333333333333494,-1.0333333333333494,-0.949482821064509,0.8452326728847631,4.1362536849393745,4.267575936556539
1.8333333333333621,1.082570419825891,-0.9766011100810597,1.0428571428571591,-1.0428571428571591,-0.9476221271186228,0.8443994342281486,4.131558450796239,4.265235624073772
1.8500000000000292,1.0907914496987199,-0.9880143464187318,1.0523809523809688,-1.0523809523809688,-0.9457028580400231,0.8435885385653832,4.127055828469582,4.26289604956336
1.8666666666666962,1.0990269149727976,-0.9994007443986354,1.0619047619047786,-1.0619047619047786,-0.9437286498169747,0.8427994544625709,4.1227404486783925,4.2605569704418915
1.8833333333333633,1.1072775548226137,-1.0107601442116207,1.0714285714285883,-1.0714285714285883,-0.9417030533132749,0.8420316465574009,4.118606983474885,4.258218160910045
1.9000000000000303,1.1155440608951364,-1.0220924043046953,1.0809523809523982,-1.0809523809523982,-0.9396295343046112,0.8412845771793059,4.114650152822525,4.255879414931902
